x(V),y(V)
0.011720,0.144933
0.024454,0.143660
0.037315,0.142895
0.050304,0.136846
0.062529,0.132515
0.075517,0.129713
0.087869,0.126338
0.100476,0.123473
0.113847,0.125956
0.126326,0.125128
0.138933,0.122581
0.152176,0.126975
0.164273,0.130669
0.176625,0.138056
0.189487,0.146016
0.202603,0.163655
0.215082,0.172507
0.227943,0.189637
0.240805,0.207277
0.253284,0.229883
0.266018,0.246759
0.278879,0.267136
0.291486,0.293054
0.304093,0.312477
0.317209,0.340242
0.328669,0.366032
0.342550,0.384563
0.355284,0.399528
0.367126,0.413029
0.380497,0.429713
0.392976,0.437355
0.404946,0.445124
0.417553,0.446652
0.430796,0.448308
0.443658,0.446206
0.456519,0.439456
0.468489,0.428949
0.481732,0.416977
0.493448,0.399337
0.506691,0.381698
0.519807,0.369280
0.531777,0.343617
0.545275,0.317826
0.558136,0.293245
0.569979,0.276434
0.582586,0.249815
0.595702,0.227909
0.608436,0.209378
0.621170,0.191866
0.633904,0.174736
0.646510,0.158115
0.658990,0.150155
0.671469,0.136655
0.684458,0.124619
0.696937,0.122709
0.709671,0.123982
0.722787,0.128440
0.735521,0.139648
0.747873,0.150028
0.760607,0.166585
0.773850,0.179894
0.786712,0.196005
0.798172,0.213071
0.811543,0.240773
0.824022,0.262106
0.836884,0.291526
0.849363,0.316553
0.862479,0.345273
0.875213,0.364886
0.887947,0.388830
0.900044,0.408507
0.913033,0.424109
0.926022,0.435381
0.938501,0.447798
0.951235,0.453148
0.963969,0.456650
0.976449,0.456077
0.988928,0.449390
1.001662,0.438119
1.013759,0.429395
1.027130,0.415576
1.039482,0.399146
1.052216,0.380615
1.065077,0.357881
1.077939,0.337695
1.091055,0.309675
1.103279,0.285031
1.116141,0.261341
1.128493,0.238989
1.141354,0.213899
1.153706,0.199953
1.166440,0.181868
1.179683,0.168941
1.191908,0.156587
1.204642,0.145252
1.217758,0.134044
1.230110,0.131942
1.242971,0.131879
1.255705,0.134490
1.267930,0.142704
1.281301,0.153212
1.293907,0.173080
1.305495,0.186135
1.318357,0.200081
1.331473,0.217784
1.344079,0.240008
1.357068,0.264398
1.369675,0.291208
1.381899,0.311904
1.394761,0.334829
1.408004,0.358709
1.419592,0.380870
1.432453,0.402076
1.446333,0.419269
1.458303,0.434298
1.470783,0.450282
1.483262,0.454549
1.496505,0.457032
1.508730,0.453593
1.521974,0.449199
1.534453,0.436208
1.547442,0.425637
1.559666,0.406088
1.572273,0.387811
1.585389,0.371445
1.597741,0.341515
1.610602,0.314515
1.623082,0.281847
1.635306,0.248669
1.647913,0.225171
1.660774,0.197151
1.673763,0.181167
1.686752,0.164356
1.698976,0.148499
1.711456,0.137483
1.724572,0.125256
1.737178,0.122008
1.750040,0.122518
1.762901,0.125256
1.775635,0.134171
1.788242,0.153212
1.800594,0.169832
1.812946,0.189573
1.826062,0.212498
1.838668,0.239244
1.851402,0.264398
1.864264,0.287387
1.876616,0.312350
1.889350,0.338650
1.902211,0.365396
1.914818,0.386283
1.927934,0.405705
1.940413,0.418569
1.952510,0.427675
1.965117,0.435444
1.978106,0.442959
1.990967,0.444869
2.003192,0.443277
2.016690,0.436272
2.029296,0.425637
2.041394,0.408889
2.054000,0.389531
2.067499,0.366096
2.079978,0.344254
2.092585,0.319609
2.105064,0.305918
2.117161,0.280891
2.129895,0.259304
2.142757,0.234022
2.155618,0.209824
2.168479,0.186899
2.180959,0.162955
2.193438,0.149900
2.206045,0.136718
2.218651,0.132643
2.232022,0.128949
2.244374,0.133025
2.256853,0.135572
2.269969,0.141622
2.282067,0.156332
2.295055,0.168941
2.307535,0.185434
2.320523,0.210843
2.333130,0.234404
2.345609,0.266691
2.358471,0.292927
2.371077,0.322984
2.383429,0.350303
2.396545,0.373865
2.408897,0.395262
2.422013,0.420161
2.435002,0.433343
2.446717,0.445060
2.459961,0.449199
2.471931,0.453020
2.485301,0.450282
2.497526,0.444360
2.510769,0.435126
2.522867,0.418059
2.535855,0.402139
2.548207,0.375839
2.560814,0.351067
2.573803,0.322539
2.586664,0.289234
2.599398,0.265481
2.611495,0.236188
2.624102,0.209123
2.637218,0.186517
2.649952,0.168941
2.662177,0.154867
2.675038,0.138629
2.687899,0.128058
2.700379,0.123091
2.713368,0.120989
2.726102,0.123919
2.738836,0.138565
2.751442,0.149009
2.763922,0.167922
2.775891,0.189319
2.789262,0.214536
2.802124,0.236761
2.814348,0.264334
2.827592,0.290507
2.840326,0.312986
2.853060,0.341388
2.865284,0.360174
2.878018,0.381316
2.891134,0.397682
2.903741,0.412074
2.916348,0.427230
2.928445,0.436208
2.941052,0.442640
2.953658,0.443277
2.966392,0.441685
2.978490,0.430286
2.992752,0.419906
3.005358,0.402521
3.017328,0.384818
3.029298,0.366733
3.042669,0.344572
3.055658,0.328333
3.068519,0.301779
3.080616,0.278917
3.093478,0.252936
3.105830,0.226317
3.118309,0.201927
3.130916,0.176710
3.144159,0.160726
3.156256,0.145888
3.169500,0.139711
3.181852,0.132515
3.194458,0.133916
3.207574,0.129586
3.220054,0.134171
3.232660,0.143851
3.245649,0.159007
3.257619,0.173908
3.270480,0.194859
3.283342,0.217784
3.295821,0.249306
3.308555,0.270066
3.321544,0.296302
3.334150,0.321520
3.346120,0.351322
3.359236,0.376922
3.372225,0.402267
3.384450,0.421817
3.397693,0.434234
3.409791,0.445251
3.422015,0.452065
3.435641,0.452638
3.447865,0.452320
3.460345,0.448435
3.473079,0.435890
3.485940,0.426402
3.499056,0.405260
3.511281,0.388066
3.524269,0.356862
3.536749,0.330499
3.548973,0.304835
3.562089,0.274460
3.575078,0.251216
3.586921,0.230456
3.599782,0.207659
3.612516,0.187536
3.624741,0.168368
3.637729,0.153403
3.650463,0.139584
3.662688,0.131114
3.675549,0.125956
3.688793,0.133534
3.701272,0.134681
3.713751,0.143086
3.726740,0.153403
3.739219,0.169641
3.751444,0.186708
3.764433,0.202309
3.777294,0.223197
3.790028,0.244466
3.802507,0.272231
3.815751,0.299168
3.827975,0.318336
3.840455,0.339860
3.852552,0.352596
3.865413,0.379915
3.878529,0.396090
3.891009,0.413984
3.903615,0.425383
3.916477,0.437737
3.928956,0.444232
3.941945,0.444232
3.954169,0.441558
3.967285,0.437355
3.980019,0.429649
3.992499,0.420734
4.005360,0.411373
4.017457,0.394052
4.030701,0.375712
4.043435,0.353042
4.055914,0.331135
4.068903,0.310312
4.081255,0.279872
4.093352,0.256884
4.106468,0.235869
4.118948,0.217911
4.132191,0.196132
4.144798,0.178174
4.156768,0.159452
4.169884,0.142004
4.182872,0.133089
4.195606,0.127166
4.207704,0.123919
4.220565,0.123664
4.233299,0.128313
4.245651,0.135699
4.258767,0.144487
4.270992,0.156841
4.283598,0.170596
4.296078,0.191293
4.308939,0.208295
4.321418,0.240582
4.334025,0.261405
4.346504,0.280318
4.359620,0.299996
4.372482,0.322411
4.385980,0.342853
4.397186,0.368707
4.410174,0.383672
4.422654,0.401503
4.435642,0.415321
4.448122,0.428376
4.460856,0.437482
4.473844,0.440793
4.486324,0.441239
4.498421,0.444296
4.512174,0.441685
4.524398,0.439584
4.537514,0.430859
4.549994,0.424237
4.562091,0.415003
4.574443,0.399974
4.587050,0.387620
4.599911,0.371254
4.612645,0.355525
4.625379,0.334893
4.637986,0.322984
4.650210,0.301651
4.663072,0.279427
4.676315,0.264716
4.688540,0.245803
4.701656,0.228418
4.714008,0.208295
4.726487,0.193713
4.739221,0.183269
4.752083,0.167412
4.764307,0.157797
4.777041,0.145952
4.790285,0.137100
4.802637,0.126084
4.815116,0.124810
4.827850,0.124428
4.840584,0.125320
4.853191,0.127803
4.866052,0.134235
4.878659,0.143978
4.890374,0.152320
4.903363,0.163528
4.916733,0.171806
4.928576,0.187344
4.941437,0.200463
4.953789,0.222241
4.966396,0.241982
4.979639,0.255355
4.992119,0.273950
5.004853,0.288533
5.012366,0.298085
