x(V),y(V)
0.019233,1.297426
0.032222,1.296470
0.044828,1.326273
0.058326,1.386833
0.070806,1.441981
0.083667,1.518207
0.096146,1.523683
0.109517,1.591885
0.122633,1.667410
0.135367,1.760511
0.148356,1.805470
0.161217,1.887236
0.173697,1.947159
0.186685,1.998677
0.199419,2.051405
0.212663,2.139539
0.225779,2.205958
0.238258,2.249451
0.251119,2.286641
0.264363,2.337076
0.277351,2.370954
0.289958,2.389931
0.303201,2.383690
0.316063,2.367770
0.328033,2.327715
0.340894,2.289698
0.354137,2.213790
0.366617,2.146798
0.379860,2.048221
0.392722,1.930029
0.405583,1.830942
0.418190,1.747393
0.431306,1.617676
0.444549,1.471783
0.457028,1.351936
0.470144,1.259472
0.482878,1.132493
0.495103,1.002521
0.507837,0.906426
0.521208,0.816127
0.534196,0.725573
0.546803,0.652468
0.559919,0.618271
0.572398,0.580445
0.585387,0.552107
0.598758,0.538352
0.611492,0.543001
0.624353,0.563124
0.637469,0.597766
0.649821,0.639413
0.662300,0.694625
0.675417,0.770850
0.688660,0.868473
0.701521,0.964121
0.714637,1.062508
0.727244,1.169237
0.739978,1.299973
0.752839,1.415490
0.766083,1.536801
0.778435,1.648242
0.791805,1.779998
0.804921,1.857815
0.817019,1.951935
0.830517,2.057836
0.843378,2.144633
0.856112,2.232831
0.869101,2.288042
0.881962,2.342362
0.894951,2.368407
0.907558,2.386683
0.920801,2.394325
0.933662,2.379806
0.946269,2.349749
0.959258,2.298295
0.971992,2.240345
0.984726,2.182523
0.997587,2.127567
1.009812,2.013133
1.023310,1.913982
1.036171,1.794772
1.049160,1.694411
1.061766,1.584052
1.074118,1.471465
1.087234,1.336462
1.100350,1.220372
1.112830,1.104537
1.125946,1.009844
1.138680,0.892162
1.151414,0.821540
1.164530,0.724363
1.177264,0.657690
1.190380,0.601014
1.202859,0.572549
1.216230,0.548095
1.228709,0.536824
1.241698,0.540008
1.255069,0.556501
1.267803,0.597703
1.280409,0.645654
1.293398,0.699337
1.305368,0.766966
1.318611,0.860385
1.331473,0.957753
1.344589,1.055184
1.357705,1.175286
1.370821,1.252276
1.383300,1.381803
1.396416,1.503878
1.409787,1.643212
1.421630,1.754143
1.434873,1.855841
1.447734,1.945440
1.460214,2.046947
1.473457,2.140685
1.486446,2.226399
1.499052,2.283330
1.512041,2.335611
1.525030,2.366305
1.538018,2.386429
1.550752,2.389867
1.563614,2.370954
1.576602,2.341470
1.589464,2.305682
1.602325,2.247796
1.615186,2.180676
1.627666,2.070700
1.640145,1.987788
1.653389,1.869978
1.665995,1.721157
1.679239,1.635379
1.692100,1.522537
1.704834,1.385623
1.717313,1.245462
1.730811,1.147330
1.743545,1.013919
1.756025,0.900249
1.769141,0.804983
1.781747,0.734998
1.794609,0.650112
1.807597,0.597703
1.820204,0.560131
1.833065,0.541600
1.846309,0.533449
1.858661,0.546758
1.871522,0.580573
1.884638,0.623493
1.897627,0.692332
1.910361,0.770022
1.923350,0.862105
1.936084,0.957944
1.949582,1.072060
1.961679,1.179616
1.974413,1.310799
1.987402,1.442745
2.000263,1.561509
2.013506,1.708293
2.026622,1.824829
2.038847,1.936588
2.051836,2.039369
2.064824,2.151956
2.078068,2.213663
2.090802,2.281738
2.103790,2.334529
2.116652,2.363440
2.129004,2.380061
2.141992,2.393370
2.154599,2.378851
2.167588,2.344272
2.181086,2.296320
2.193438,2.226781
2.206172,2.142850
2.219033,2.068344
2.232277,1.982630
2.245011,1.869087
2.257872,1.744209
2.271115,1.647542
2.282703,1.507253
2.296074,1.391800
2.309063,1.283225
2.321669,1.177388
2.334531,1.039710
2.347137,0.956416
2.359999,0.863187
2.372733,0.762126
2.385721,0.681252
2.398201,0.641770
2.411444,0.579299
2.424433,0.542810
2.437294,0.524406
2.449519,0.529182
2.462635,0.552680
2.475751,0.588469
2.488230,0.633236
2.501856,0.680870
2.514590,0.770150
2.527196,0.851279
2.540185,0.939413
2.553046,1.022516
2.566290,1.154654
2.578769,1.263102
2.591376,1.426379
2.604364,1.555141
2.617608,1.653337
2.630087,1.759429
2.643203,1.902710
2.656192,1.991545
2.669180,2.072610
2.681787,2.163292
2.694266,2.240027
2.707255,2.269129
2.720371,2.328607
2.733233,2.362039
2.746094,2.382226
2.759465,2.382862
2.771307,2.374075
2.784551,2.344909
2.797412,2.311476
2.810146,2.265053
2.823262,2.172207
2.835614,2.066242
2.848603,2.003007
2.861337,1.917739
2.874707,1.794772
2.887569,1.726124
2.900557,1.615956
2.912909,1.508145
2.925898,1.410714
2.937995,1.232217
2.950857,1.127144
2.963973,1.041429
2.976707,0.971381
2.989696,0.853189
3.002430,0.734871
3.015164,0.676921
3.028152,0.628142
3.041141,0.579490
3.054002,0.550261
3.066482,0.532939
3.079725,0.525234
3.092204,0.535296
3.105448,0.560895
3.117800,0.580381
3.130534,0.621965
3.143650,0.681697
3.156893,0.758878
3.169245,0.807721
3.181979,0.933809
3.194968,0.987301
3.208593,1.083395
3.220690,1.220945
3.234189,1.347733
3.246923,1.399569
3.258892,1.499803
3.272009,1.627992
3.284743,1.711987
3.298241,1.770191
3.310720,1.874181
3.323963,1.997021
3.336825,2.073374
3.349431,2.147753
3.362675,2.199781
3.375154,2.258622
3.388015,2.301542
3.400877,2.343317
3.413611,2.367133
3.426090,2.390568
3.438951,2.384391
3.452704,2.378851
3.465311,2.365541
3.477917,2.338923
3.491034,2.281228
3.503895,2.247668
3.516502,2.245694
3.529490,2.161317
3.542606,2.056626
3.554958,1.964162
3.567820,1.897106
3.580044,1.766943
3.593033,1.666965
3.606022,1.613664
3.619138,1.537629
3.631744,1.467007
3.644606,1.400843
3.657340,1.294878
3.669946,1.130582
3.683190,1.043085
3.696178,1.003539
3.708658,0.946418
3.721774,0.876624
3.734380,0.812052
3.746987,0.740347
3.759848,0.692077
3.772710,0.652086
3.785444,0.620373
3.798687,0.572995
3.811421,0.547968
3.824410,0.539180
3.837271,0.533895
3.850260,0.530201
3.862867,0.529246
3.875473,0.541473
3.888462,0.570766
3.901578,0.610948
3.913803,0.608910
3.926919,0.645336
3.940162,0.687301
3.952387,0.726083
3.965630,0.739392
3.978746,0.783077
3.991353,0.886685
4.003959,0.967369
4.017203,1.041302
4.029809,1.103263
4.043180,1.106002
4.055532,1.148922
4.068266,1.249538
4.080873,1.324299
4.093862,1.349198
4.107232,1.408676
4.119712,1.526549
4.132573,1.594432
4.145562,1.656202
4.158423,1.728989
4.171030,1.797064
4.183764,1.816296
4.196625,1.853549
4.209868,1.938754
4.222984,1.967219
4.235082,2.034020
4.247943,2.096809
4.260550,2.133489
4.273411,2.144824
4.286527,2.179148
4.299261,2.228501
4.312122,2.236588
4.325111,2.261360
4.337845,2.311158
4.350452,2.338286
4.363695,2.348921
4.376684,2.361020
4.389418,2.378787
4.401770,2.387129
4.414759,2.392988
4.427875,2.392032
4.440227,2.391587
4.453215,2.384136
4.466204,2.372164
4.478938,2.360638
4.492054,2.354843
4.504406,2.339305
4.517649,2.308993
4.530383,2.299186
4.543627,2.290080
4.555979,2.255374
4.568458,2.191375
4.581319,2.138329
4.594690,2.122536
4.607042,2.101967
4.620286,2.078978
4.633147,2.055671
4.645372,2.006191
4.658615,1.946841
4.671476,1.915383
4.684720,1.874563
4.697072,1.852403
4.710188,1.846162
4.722412,1.798720
4.735146,1.698932
4.748390,1.641938
4.760996,1.634933
4.773603,1.622770
4.787101,1.593541
4.800217,1.513303
4.812569,1.444974
4.825303,1.393265
4.838164,1.400079
4.850644,1.396831
4.863887,1.332896
4.876876,1.280296
4.888973,1.264057
4.901452,1.204770
4.914441,1.161850
4.927685,1.124787
4.940419,1.153507
4.953153,1.115490
4.965759,1.059324
4.978621,0.975584
4.991609,0.969216
5.004089,0.934446
5.017332,0.918972
