x(V),y(V)
0.011083,1.151597
0.023690,1.149878
0.036679,1.135104
0.049922,1.113962
0.063547,1.071041
0.076281,1.025255
0.088251,0.972018
0.101622,0.936420
0.114611,0.879872
0.127472,0.846567
0.140461,0.820075
0.153322,0.779384
0.165547,0.731814
0.178408,0.702012
0.192288,0.673355
0.204768,0.626996
0.217756,0.563633
0.230108,0.512307
0.243479,0.462763
0.256086,0.407489
0.269202,0.389276
0.282445,0.356289
0.294924,0.333364
0.308168,0.293436
0.320647,0.270511
0.333254,0.241282
0.346242,0.214345
0.358849,0.199380
0.371838,0.188745
0.384954,0.185307
0.397688,0.180021
0.410167,0.179384
0.423538,0.185498
0.436781,0.191929
0.449388,0.209951
0.462249,0.232112
0.475493,0.262169
0.487717,0.285540
0.500579,0.310121
0.514077,0.344636
0.527065,0.396599
0.539799,0.440475
0.553043,0.482377
0.565522,0.540836
0.578001,0.580636
0.590990,0.604198
0.604615,0.663612
0.616585,0.726720
0.629829,0.784987
0.642945,0.832302
0.654915,0.891653
0.668158,0.942915
0.680892,1.011117
0.694008,1.049071
0.706997,1.082695
0.719858,1.100780
0.733102,1.136568
0.745836,1.179553
0.758060,1.216233
0.771431,1.228014
0.783910,1.247755
0.797154,1.261637
0.810015,1.265713
0.823131,1.273100
0.835865,1.270425
0.848981,1.264885
0.861333,1.241578
0.874576,1.224511
0.887820,1.189041
0.900809,1.160703
0.913797,1.135486
0.925767,1.112561
0.938883,1.084669
0.951363,1.038691
0.964606,0.990867
0.977467,0.924766
0.989565,0.876688
1.003190,0.803391
1.015669,0.742321
1.028785,0.682716
1.041647,0.638458
1.054635,0.583374
1.066860,0.515746
1.079849,0.472443
1.092583,0.419970
1.106081,0.378577
1.118942,0.319354
1.131294,0.301779
1.143519,0.267582
1.157271,0.244657
1.170642,0.211225
1.182612,0.186644
1.195856,0.174736
1.209099,0.171615
1.221706,0.177474
1.234440,0.184861
1.247938,0.204538
1.260417,0.218102
1.273533,0.247714
1.286649,0.285986
1.299001,0.328907
1.311226,0.374757
1.324596,0.422708
1.337203,0.472570
1.350192,0.518038
1.363308,0.564079
1.376042,0.624003
1.388521,0.692205
1.401637,0.769131
1.414626,0.843001
1.428251,0.921200
1.440731,0.959409
1.453847,1.000546
1.466708,1.038819
1.478933,1.076517
1.492176,1.115681
1.504655,1.158984
1.517899,1.197383
1.530505,1.228842
1.543494,1.242342
1.556355,1.250366
1.569217,1.259727
1.582205,1.259472
1.594939,1.246800
1.608310,1.236101
1.621171,1.198084
1.633141,1.160894
1.646385,1.110523
1.659373,1.072824
1.672235,1.034297
1.684969,0.991950
1.698085,0.954187
1.710437,0.905217
1.723935,0.855100
1.736542,0.776836
1.749658,0.692650
1.762264,0.600314
1.775126,0.522432
1.788114,0.472697
1.799957,0.413666
1.813837,0.371700
1.826571,0.332982
1.839305,0.294519
1.852803,0.256502
1.865155,0.227463
1.877889,0.205748
1.890623,0.193267
1.903994,0.184606
1.916728,0.177792
1.929335,0.185370
1.942705,0.201927
1.955057,0.228610
1.967537,0.268474
1.980525,0.322093
1.993514,0.384118
2.006503,0.413220
2.019237,0.452893
2.032225,0.499889
2.045469,0.559494
2.057821,0.620691
2.071191,0.691886
2.083925,0.765883
2.097296,0.824406
2.109903,0.901714
2.121745,0.958581
2.135625,1.020160
2.148105,1.077664
2.161093,1.132429
2.173955,1.173567
2.186689,1.207445
2.199932,1.223556
2.213048,1.244698
2.225655,1.239094
2.238389,1.245080
2.251505,1.228842
2.264748,1.215214
2.276973,1.183947
2.289325,1.145229
2.302441,1.096895
2.315430,1.029840
2.327654,0.977303
2.341152,0.897256
2.353759,0.822877
2.366366,0.738246
2.379227,0.675075
2.392598,0.588851
2.405077,0.524343
2.417938,0.456586
2.431055,0.410354
2.443661,0.369535
2.456523,0.323494
2.469257,0.286113
2.481863,0.248414
2.494979,0.213708
2.508095,0.186835
2.520447,0.173780
2.533691,0.182951
2.546679,0.200972
2.559668,0.233004
2.572275,0.261405
2.585645,0.307510
2.598507,0.356098
2.610731,0.407106
2.623975,0.429458
2.636963,0.478747
2.649315,0.529946
2.662304,0.619736
2.675293,0.675902
2.688409,0.759133
2.700761,0.841217
2.714132,0.939349
2.726866,1.009971
2.739854,1.075308
2.752970,1.117018
2.765322,1.160258
2.778311,1.182673
2.791045,1.202350
2.803906,1.208591
2.817277,1.213749
2.829629,1.209164
2.843000,1.193626
2.855352,1.177897
2.868850,1.135358
2.881456,1.090400
2.894190,1.022771
2.907434,0.945526
2.919658,0.869937
2.932392,0.791228
2.944999,0.692714
2.957478,0.603243
2.971359,0.535678
2.984220,0.463527
2.996445,0.396981
3.009306,0.338522
3.022040,0.296620
3.035538,0.253254
3.048145,0.215555
3.060879,0.190019
3.074122,0.174608
3.086729,0.175309
3.099717,0.197215
3.111942,0.234150
3.125695,0.294583
3.137919,0.362785
3.151035,0.445442
3.164024,0.554718
3.177140,0.677558
3.189237,0.797596
3.202226,0.637248
3.215215,0.342088
3.228586,0.434043
3.241320,0.619163
3.253926,0.702394
3.266788,0.832557
3.279394,0.997745
3.292128,1.091673
3.305117,1.142363
3.317851,1.197638
3.331349,1.164715
3.343701,1.142427
3.356944,1.063336
3.369933,1.011627
3.382540,0.937630
3.395146,0.809696
3.408008,0.736335
3.420996,0.631262
3.433603,0.495559
3.446719,0.381953
3.459835,0.308401
3.472569,0.227336
3.485303,0.197724
3.498165,0.185434
3.510899,0.216510
3.523760,0.264589
3.536239,0.346865
3.548973,0.435508
3.562471,0.538543
3.575460,0.624958
3.587939,0.737418
3.600164,0.814153
3.613153,0.914832
3.626014,1.009334
3.639512,1.107594
3.652119,1.153889
3.664725,1.191652
3.677841,1.185411
3.690193,1.159111
3.703437,1.095876
3.716425,1.016276
3.728777,0.926104
3.742403,0.799698
3.754628,0.689084
3.767616,0.594901
3.781369,0.490210
3.793084,0.398064
3.806455,0.326869
3.819698,0.271530
3.831414,0.223069
3.844402,0.193967
3.857518,0.195432
3.870762,0.232239
3.883496,0.313432
3.895975,0.400484
3.909091,0.511161
3.922080,0.607892
3.934686,0.730222
3.947548,0.824660
3.960154,0.918526
3.974035,1.003030
3.986004,1.076390
3.998993,1.133830
4.011600,1.175987
4.024843,1.190124
4.037323,1.180763
4.051330,1.142109
4.063809,1.070914
4.076034,0.964631
4.089277,0.843064
4.101884,0.719142
4.114745,0.609101
4.127607,0.505238
4.140595,0.432897
4.153457,0.361511
4.165936,0.290698
4.178925,0.229756
4.191786,0.197151
4.204520,0.192248
4.217127,0.213454
4.230370,0.260896
4.242595,0.328397
4.255329,0.430859
4.268827,0.537270
4.281179,0.657244
4.294804,0.767539
4.307666,0.880317
4.319890,0.981761
4.333134,1.049390
4.345358,1.120584
4.358602,1.159048
4.371208,1.186303
4.384197,1.187704
4.397186,1.163442
4.410174,1.112943
4.422526,1.026528
4.435770,0.930816
4.448631,0.838416
4.461365,0.741111
4.474099,0.616425
4.486960,0.500335
4.499822,0.402712
4.513065,0.316170
4.525035,0.248223
4.538533,0.206449
4.551649,0.194095
4.564129,0.194986
4.576735,0.215046
4.590106,0.261660
4.602585,0.326741
4.615574,0.423663
4.628181,0.539053
4.640533,0.661956
4.654031,0.767666
4.666892,0.888851
4.679244,0.969279
4.692487,1.055885
4.705221,1.109377
4.718465,1.155545
4.730944,1.178980
4.744315,1.181909
4.756539,1.156500
4.769146,1.114662
4.782771,1.049135
4.795506,0.962720
4.807985,0.852171
4.820592,0.766838
4.833580,0.637121
4.846569,0.528163
4.858921,0.419843
4.872546,0.339860
4.884898,0.269174
4.897760,0.228737
4.909857,0.198552
4.922591,0.191993
4.936089,0.203328
4.949205,0.236633
4.961430,0.302798
4.974546,0.395134
4.987407,0.501927
5.000523,0.599295
5.012493,0.703986
5.014912,0.750791
