x(V),y(V)
0.011338,0.134872
0.024836,0.138438
0.037061,0.136973
0.049922,0.135508
0.062911,0.128249
0.075517,0.126402
0.088124,0.121499
0.100858,0.129968
0.113847,0.134235
0.126453,0.133662
0.139315,0.131688
0.151794,0.135763
0.164146,0.138374
0.176753,0.146461
0.190123,0.152766
0.202985,0.159580
0.215846,0.169578
0.228198,0.187663
0.240677,0.204220
0.253411,0.228036
0.266018,0.241664
0.278243,0.263252
0.291359,0.287068
0.304729,0.310184
0.316954,0.336803
0.328924,0.355907
0.342040,0.376922
0.355156,0.395389
0.367508,0.409781
0.380115,0.421689
0.392594,0.431305
0.405328,0.437992
0.417935,0.449518
0.430796,0.452511
0.444294,0.447416
0.456264,0.439966
0.468744,0.427675
0.481987,0.415512
0.494212,0.396217
0.506818,0.376540
0.519807,0.353424
0.532032,0.330371
0.545402,0.312668
0.558646,0.295411
0.570616,0.273122
0.583477,0.242110
0.596084,0.220331
0.608563,0.199953
0.621424,0.179384
0.634413,0.162509
0.646892,0.146398
0.659244,0.133407
0.671724,0.125447
0.684458,0.120225
0.696937,0.120098
0.710053,0.122454
0.723042,0.127485
0.735139,0.142513
0.748382,0.154485
0.761371,0.168877
0.773341,0.183715
0.785820,0.201800
0.798809,0.219121
0.810906,0.243383
0.824277,0.265481
0.836884,0.290698
0.849236,0.319482
0.862224,0.344572
0.874831,0.370172
0.888202,0.382717
0.900172,0.392460
0.913415,0.407234
0.926149,0.421562
0.938501,0.430923
0.951490,0.438501
0.964351,0.438055
0.976449,0.437992
0.988801,0.436591
1.001153,0.431241
1.014014,0.417996
1.027003,0.403731
1.039609,0.386347
1.052853,0.374311
1.065332,0.352851
1.077811,0.334510
1.090673,0.307128
1.103152,0.286304
1.116141,0.261851
1.129129,0.242556
1.141481,0.221032
1.153833,0.201418
1.166695,0.184033
1.179301,0.167986
1.192163,0.154358
1.205024,0.139966
1.217885,0.125829
1.230237,0.120798
1.242844,0.123982
1.255833,0.129395
1.267421,0.137801
1.280791,0.147799
1.294417,0.164356
1.305877,0.180658
1.318357,0.198680
1.331600,0.220904
1.343952,0.240518
1.356431,0.261278
1.369420,0.293755
1.381899,0.321265
1.394506,0.345655
1.407367,0.366160
1.420229,0.390677
1.432581,0.409717
1.446079,0.427357
1.458303,0.437546
1.471037,0.447353
1.484026,0.450282
1.496378,0.448499
1.508857,0.448435
1.522228,0.436782
1.534835,0.422645
1.546805,0.409017
1.559666,0.393925
1.572782,0.373419
1.585644,0.352023
1.598250,0.326614
1.610602,0.297767
1.623209,0.271594
1.635688,0.245294
1.647913,0.222305
1.661793,0.197151
1.673508,0.176200
1.686752,0.167476
1.698849,0.153976
1.711456,0.145506
1.724444,0.136591
1.737178,0.133025
1.749785,0.132324
1.762646,0.136145
1.775380,0.144615
1.787732,0.155122
1.800212,0.170979
1.813200,0.189128
1.825934,0.214345
1.838414,0.233640
1.851912,0.255164
1.864646,0.279108
1.876743,0.307828
1.889604,0.331454
1.902211,0.355971
1.914945,0.372018
1.927679,0.386601
1.939904,0.405960
1.952892,0.421626
1.964735,0.433407
1.977851,0.438819
1.990585,0.439966
2.003192,0.446334
2.016053,0.441239
2.028787,0.428312
2.041394,0.408062
2.054128,0.390613
2.067116,0.370235
2.079214,0.353233
2.092839,0.329798
2.105191,0.305281
2.117543,0.287450
2.129895,0.258603
2.142374,0.236188
2.156000,0.209951
2.168861,0.181741
2.180577,0.157478
2.193820,0.141112
2.206045,0.130223
2.218524,0.125574
2.231895,0.122900
2.243992,0.126147
2.257363,0.131751
2.269969,0.141303
2.281812,0.158752
2.294673,0.170724
2.307535,0.188045
2.320014,0.217848
2.333003,0.244211
2.345991,0.269493
2.357834,0.292481
2.370695,0.324322
2.383811,0.356799
2.396418,0.384627
2.409152,0.402521
2.422013,0.420670
2.434747,0.433152
2.446845,0.441048
2.459579,0.449199
2.472567,0.447162
2.485174,0.439138
2.497781,0.432897
2.510515,0.426147
2.522994,0.416085
2.535728,0.399210
2.548462,0.371891
2.561323,0.344827
2.574312,0.316107
2.586537,0.289170
2.599271,0.267901
2.612132,0.238989
2.623975,0.209060
2.637218,0.195941
2.649443,0.176582
2.662813,0.163719
2.675547,0.151110
2.687645,0.143596
2.700379,0.135572
2.713240,0.133916
2.725847,0.135508
2.738963,0.140221
2.751315,0.153021
2.763540,0.166330
2.776528,0.184033
2.789262,0.203583
2.801869,0.226572
2.814348,0.256247
2.827464,0.281592
2.839944,0.306300
2.852678,0.322284
2.864775,0.343298
2.878146,0.355143
2.891516,0.383290
2.903359,0.401248
2.916093,0.419269
2.929082,0.429458
2.940924,0.437227
2.953658,0.448563
2.966392,0.445952
2.978617,0.440539
2.991351,0.422262
3.004340,0.405323
3.017074,0.389785
3.029553,0.373801
3.042414,0.358072
3.055021,0.339032
3.068010,0.313560
3.080998,0.283821
3.093223,0.260896
3.105193,0.237461
3.118182,0.204920
3.131043,0.176137
3.143777,0.154231
3.156766,0.142322
3.169372,0.133407
3.182106,0.126020
3.194586,0.122135
3.207065,0.127803
3.219672,0.132006
3.232788,0.141749
3.245904,0.151747
3.257619,0.164674
3.269971,0.191611
3.282832,0.216383
3.295821,0.241664
3.308555,0.265735
3.321416,0.292672
3.333768,0.317826
3.345738,0.348584
3.358345,0.374948
3.372098,0.397109
3.384450,0.416149
3.397439,0.427803
3.410427,0.437609
3.422397,0.441367
3.434877,0.440985
3.447738,0.438947
3.460854,0.436845
3.473206,0.428949
3.485558,0.420861
3.498547,0.410036
3.510262,0.391377
3.523505,0.365969
3.537258,0.337567
3.549228,0.308720
3.562344,0.279299
3.574823,0.256820
3.586921,0.246950
3.599527,0.226190
3.612261,0.204729
3.625123,0.181167
3.637347,0.168431
3.649954,0.157606
3.662688,0.148372
3.675677,0.140603
3.688411,0.134999
3.701145,0.133089
3.713751,0.139075
3.726231,0.147608
3.738710,0.158179
3.751571,0.167158
3.763541,0.185307
3.777039,0.205748
3.789391,0.230902
3.801998,0.250579
3.814859,0.269811
3.827593,0.286049
3.840455,0.312031
3.852934,0.333555
3.865795,0.360429
3.878784,0.383035
3.890754,0.399656
3.903743,0.423982
3.916095,0.433852
3.928701,0.446015
3.941435,0.448308
3.954169,0.448244
3.966903,0.444296
3.979892,0.440220
3.991735,0.432069
4.004978,0.421562
4.017585,0.407361
4.030064,0.389212
4.043435,0.370235
4.056042,0.349157
4.069030,0.322666
4.080873,0.294201
4.093352,0.271085
4.106341,0.245358
4.118693,0.219758
4.131682,0.199507
4.144670,0.178620
4.156640,0.164419
4.169756,0.152065
4.182363,0.141367
4.195352,0.133152
4.207576,0.126784
4.220438,0.131560
4.232790,0.133789
4.245269,0.137228
4.258003,0.142322
4.270737,0.151492
4.283471,0.163910
4.295950,0.182059
4.308430,0.199762
4.321291,0.220522
4.334152,0.239626
4.346504,0.257330
4.359875,0.280955
4.371845,0.298595
4.384834,0.310630
4.397313,0.326105
4.409920,0.347310
4.422526,0.365587
4.435260,0.385264
4.447994,0.401694
4.460601,0.413220
4.473335,0.425192
4.486069,0.433470
4.498421,0.439711
4.511410,0.440475
4.523762,0.437673
4.537260,0.442768
4.549484,0.440602
4.561836,0.433534
4.574443,0.424109
4.587559,0.411882
4.600038,0.397745
4.612772,0.382653
4.624997,0.368580
4.637858,0.349858
4.650847,0.330881
4.662944,0.307637
4.676443,0.292354
4.688030,0.264908
4.700892,0.239817
4.713753,0.221095
4.726487,0.207850
4.738966,0.190210
4.751446,0.175118
4.764307,0.162127
4.777296,0.151620
4.789648,0.141367
4.801745,0.135699
4.814479,0.130605
4.827595,0.127676
4.840457,0.122263
4.852936,0.132070
4.865670,0.135636
4.877640,0.141622
4.889737,0.145634
4.903363,0.154422
4.915842,0.164037
4.928958,0.175946
4.940928,0.190019
4.953917,0.201545
4.966396,0.211097
4.979003,0.222751
4.992119,0.239817
5.004471,0.254719
5.011729,0.262870
